# Gaussian broadening used, width        1.0000E-01 eV
# \omega [eV], \alpha_{z}
      1.0000E-002      0.0000E+000
      1.7990E-002      0.0000E+000
      2.5980E-002      0.0000E+000
      3.3970E-002      0.0000E+000
      4.1960E-002      0.0000E+000
      4.9950E-002      0.0000E+000
      5.7940E-002      0.0000E+000
      6.5930E-002      0.0000E+000
      7.3920E-002      0.0000E+000
      8.1910E-002      0.0000E+000
      8.9900E-002      0.0000E+000
      9.7890E-002      0.0000E+000
      1.0588E-001      0.0000E+000
      1.1387E-001      0.0000E+000
      1.2186E-001      0.0000E+000
      1.2985E-001      0.0000E+000
      1.3784E-001      1.3012E-005
      1.4583E-001      1.9468E-005
      1.5382E-001      3.8416E-005
      1.6181E-001      6.1097E-005
      1.6980E-001      1.0388E-004
      1.7779E-001      1.7197E-004
      1.8578E-001      2.8168E-004
      1.9377E-001      4.5874E-004
      2.0176E-001      7.4130E-004
      2.0975E-001      1.1881E-003
      2.1774E-001      1.8895E-003
      2.2573E-001      2.9817E-003
      2.3372E-001      4.6691E-003
      2.4171E-001      7.2562E-003
      2.4970E-001      1.1193E-002
      2.5769E-001      1.7136E-002
      2.6568E-001      2.6044E-002
      2.7367E-001      3.9293E-002
      2.8166E-001      5.8854E-002
      2.8965E-001      8.7518E-002
      2.9764E-001      1.2921E-001
      3.0563E-001      1.8941E-001
      3.1362E-001      2.7570E-001
      3.2161E-001      3.9847E-001
      3.2960E-001      5.7186E-001
      3.3759E-001      8.1499E-001
      3.4558E-001      1.1534E+000
      3.5357E-001      1.6210E+000
      3.6156E-001      2.2625E+000
      3.6955E-001      3.1361E+000
      3.7754E-001      4.3171E+000
      3.8553E-001      5.9022E+000
      3.9352E-001      8.0142E+000
      4.0151E-001      1.0808E+001
      4.0950E-001      1.4476E+001
      4.1749E-001      1.9258E+001
      4.2548E-001      2.5446E+001
      4.3347E-001      3.3395E+001
      4.4146E-001      4.3531E+001
      4.4945E-001      5.6362E+001
      4.5744E-001      7.2485E+001
      4.6543E-001      9.2594E+001
      4.7342E-001      1.1749E+002
      4.8141E-001      1.4808E+002
      4.8940E-001      1.8539E+002
      4.9739E-001      2.3056E+002
      5.0538E-001      2.8483E+002
      5.1337E-001      3.4954E+002
      5.2136E-001      4.2611E+002
      5.2935E-001      5.1604E+002
      5.3734E-001      6.2084E+002
      5.4533E-001      7.4205E+002
      5.5332E-001      8.8114E+002
      5.6131E-001      1.0395E+003
      5.6930E-001      1.2185E+003
      5.7729E-001      1.4192E+003
      5.8528E-001      1.6426E+003
      5.9327E-001      1.8892E+003
      6.0126E-001      2.1594E+003
      6.0925E-001      2.4533E+003
      6.1724E-001      2.7706E+003
      6.2523E-001      3.1108E+003
      6.3322E-001      3.4730E+003
      6.4121E-001      3.8564E+003
      6.4920E-001      4.2597E+003
      6.5719E-001      4.6819E+003
      6.6518E-001      5.1223E+003
      6.7317E-001      5.5804E+003
      6.8116E-001      6.0565E+003
      6.8915E-001      6.5516E+003
      6.9714E-001      7.0682E+003
      7.0513E-001      7.6099E+003
      7.1312E-001      8.1823E+003
      7.2111E-001      8.7929E+003
      7.2910E-001      9.4514E+003
      7.3709E-001      1.0170E+004
      7.4508E-001      1.0962E+004
      7.5307E-001      1.1847E+004
      7.6106E-001      1.2842E+004
      7.6905E-001      1.3969E+004
      7.7704E-001      1.5252E+004
      7.8503E-001      1.6716E+004
      7.9302E-001      1.8385E+004
      8.0101E-001      2.0287E+004
      8.0900E-001      2.2445E+004
      8.1699E-001      2.4885E+004
      8.2498E-001      2.7626E+004
      8.3297E-001      3.0688E+004
      8.4096E-001      3.4086E+004
      8.4895E-001      3.7828E+004
      8.5694E-001      4.1920E+004
      8.6493E-001      4.6359E+004
      8.7292E-001      5.1135E+004
      8.8091E-001      5.6235E+004
      8.8890E-001      6.1633E+004
      8.9689E-001      6.7299E+004
      9.0488E-001      7.3194E+004
      9.1287E-001      7.9271E+004
      9.2086E-001      8.5478E+004
      9.2885E-001      9.1754E+004
      9.3684E-001      9.8031E+004
      9.4483E-001      1.0424E+005
      9.5282E-001      1.1030E+005
      9.6081E-001      1.1613E+005
      9.6880E-001      1.2166E+005
      9.7679E-001      1.2679E+005
      9.8478E-001      1.3144E+005
      9.9277E-001      1.3553E+005
      1.0008E+000      1.3898E+005
      1.0088E+000      1.4173E+005
      1.0167E+000      1.4370E+005
      1.0247E+000      1.4483E+005
      1.0327E+000      1.4509E+005
      1.0407E+000      1.4444E+005
      1.0487E+000      1.4289E+005
      1.0567E+000      1.4042E+005
      1.0647E+000      1.3709E+005
      1.0727E+000      1.3295E+005
      1.0807E+000      1.2809E+005
      1.0887E+000      1.2263E+005
      1.0966E+000      1.1672E+005
      1.1046E+000      1.1051E+005
      1.1126E+000      1.0420E+005
      1.1206E+000      9.7978E+004
      1.1286E+000      9.2043E+004
      1.1366E+000      8.6583E+004
      1.1446E+000      8.1772E+004
      1.1526E+000      7.7764E+004
      1.1606E+000      7.4691E+004
      1.1686E+000      7.2662E+004
      1.1765E+000      7.1760E+004
      1.1845E+000      7.2050E+004
      1.1925E+000      7.3576E+004
      1.2005E+000      7.6368E+004
      1.2085E+000      8.0441E+004
      1.2165E+000      8.5797E+004
      1.2245E+000      9.2430E+004
      1.2325E+000      1.0032E+005
      1.2405E+000      1.0944E+005
      1.2485E+000      1.1976E+005
      1.2564E+000      1.3122E+005
      1.2644E+000      1.4379E+005
      1.2724E+000      1.5738E+005
      1.2804E+000      1.7193E+005
      1.2884E+000      1.8735E+005
      1.2964E+000      2.0355E+005
      1.3044E+000      2.2042E+005
      1.3124E+000      2.3784E+005
      1.3204E+000      2.5570E+005
      1.3284E+000      2.7386E+005
      1.3363E+000      2.9218E+005
      1.3443E+000      3.1051E+005
      1.3523E+000      3.2870E+005
      1.3603E+000      3.4660E+005
      1.3683E+000      3.6403E+005
      1.3763E+000      3.8086E+005
      1.3843E+000      3.9691E+005
      1.3923E+000      4.1204E+005
      1.4003E+000      4.2610E+005
      1.4083E+000      4.3894E+005
      1.4162E+000      4.5042E+005
      1.4242E+000      4.6044E+005
      1.4322E+000      4.6886E+005
      1.4402E+000      4.7560E+005
      1.4482E+000      4.8054E+005
      1.4562E+000      4.8363E+005
      1.4642E+000      4.8480E+005
      1.4722E+000      4.8398E+005
      1.4802E+000      4.8115E+005
      1.4882E+000      4.7627E+005
      1.4961E+000      4.6934E+005
      1.5041E+000      4.6036E+005
      1.5121E+000      4.4933E+005
      1.5201E+000      4.3629E+005
      1.5281E+000      4.2129E+005
      1.5361E+000      4.0441E+005
      1.5441E+000      3.8574E+005
      1.5521E+000      3.6545E+005
      1.5601E+000      3.4375E+005
      1.5681E+000      3.2093E+005
      1.5760E+000      2.9739E+005
      1.5840E+000      2.7361E+005
      1.5920E+000      2.5016E+005
      1.6000E+000      2.2763E+005
      1.6080E+000      2.0659E+005
      1.6160E+000      1.8747E+005
      1.6240E+000      1.7057E+005
      1.6320E+000      1.5605E+005
      1.6400E+000      1.4392E+005
      1.6480E+000      1.3412E+005
      1.6559E+000      1.2653E+005
      1.6639E+000      1.2102E+005
      1.6719E+000      1.1744E+005
      1.6799E+000      1.1567E+005
      1.6879E+000      1.1558E+005
      1.6959E+000      1.1708E+005
      1.7039E+000      1.2008E+005
      1.7119E+000      1.2449E+005
      1.7199E+000      1.3025E+005
      1.7279E+000      1.3728E+005
      1.7358E+000      1.4552E+005
      1.7438E+000      1.5492E+005
      1.7518E+000      1.6541E+005
      1.7598E+000      1.7693E+005
      1.7678E+000      1.8940E+005
      1.7758E+000      2.0277E+005
      1.7838E+000      2.1696E+005
      1.7918E+000      2.3190E+005
      1.7998E+000      2.4750E+005
      1.8078E+000      2.6369E+005
      1.8157E+000      2.8040E+005
      1.8237E+000      2.9753E+005
      1.8317E+000      3.1502E+005
      1.8397E+000      3.3278E+005
      1.8477E+000      3.5073E+005
      1.8557E+000      3.6881E+005
      1.8637E+000      3.8695E+005
      1.8717E+000      4.0508E+005
      1.8797E+000      4.2313E+005
      1.8877E+000      4.4106E+005
      1.8956E+000      4.5880E+005
      1.9036E+000      4.7632E+005
      1.9116E+000      4.9357E+005
      1.9196E+000      5.1050E+005
      1.9276E+000      5.2707E+005
      1.9356E+000      5.4324E+005
      1.9436E+000      5.5899E+005
      1.9516E+000      5.7426E+005
      1.9596E+000      5.8901E+005
      1.9676E+000      6.0321E+005
      1.9755E+000      6.1682E+005
      1.9835E+000      6.2978E+005
      1.9915E+000      6.4205E+005
      1.9995E+000      6.5359E+005
      2.0075E+000      6.6434E+005
      2.0155E+000      6.7425E+005
      2.0235E+000      6.8329E+005
      2.0315E+000      6.9140E+005
      2.0395E+000      6.9854E+005
      2.0474E+000      7.0469E+005
      2.0554E+000      7.0980E+005
      2.0634E+000      7.1386E+005
      2.0714E+000      7.1687E+005
      2.0794E+000      7.1882E+005
      2.0874E+000      7.1973E+005
      2.0954E+000      7.1963E+005
      2.1034E+000      7.1857E+005
      2.1114E+000      7.1660E+005
      2.1194E+000      7.1379E+005
      2.1273E+000      7.1024E+005
      2.1353E+000      7.0605E+005
      2.1433E+000      7.0133E+005
      2.1513E+000      6.9619E+005
      2.1593E+000      6.9077E+005
      2.1673E+000      6.8518E+005
      2.1753E+000      6.7955E+005
      2.1833E+000      6.7400E+005
      2.1913E+000      6.6862E+005
      2.1993E+000      6.6351E+005
      2.2073E+000      6.5873E+005
      2.2152E+000      6.5433E+005
      2.2232E+000      6.5035E+005
      2.2312E+000      6.4679E+005
      2.2392E+000      6.4362E+005
      2.2472E+000      6.4083E+005
      2.2552E+000      6.3837E+005
      2.2632E+000      6.3617E+005
      2.2712E+000      6.3417E+005
      2.2792E+000      6.3229E+005
      2.2872E+000      6.3047E+005
      2.2951E+000      6.2864E+005
      2.3031E+000      6.2672E+005
      2.3111E+000      6.2466E+005
      2.3191E+000      6.2242E+005
      2.3271E+000      6.1997E+005
      2.3351E+000      6.1728E+005
      2.3431E+000      6.1436E+005
      2.3511E+000      6.1122E+005
      2.3591E+000      6.0788E+005
      2.3670E+000      6.0439E+005
      2.3750E+000      6.0082E+005
      2.3830E+000      5.9722E+005
      2.3910E+000      5.9368E+005
      2.3990E+000      5.9029E+005
      2.4070E+000      5.8713E+005
      2.4150E+000      5.8429E+005
      2.4230E+000      5.8185E+005
      2.4310E+000      5.7988E+005
      2.4390E+000      5.7843E+005
      2.4470E+000      5.7756E+005
      2.4549E+000      5.7728E+005
      2.4629E+000      5.7761E+005
      2.4709E+000      5.7854E+005
      2.4789E+000      5.8003E+005
      2.4869E+000      5.8205E+005
      2.4949E+000      5.8453E+005
      2.5029E+000      5.8742E+005
      2.5109E+000      5.9063E+005
      2.5189E+000      5.9410E+005
      2.5269E+000      5.9773E+005
      2.5348E+000      6.0144E+005
      2.5428E+000      6.0516E+005
      2.5508E+000      6.0881E+005
      2.5588E+000      6.1233E+005
      2.5668E+000      6.1565E+005
      2.5748E+000      6.1873E+005
      2.5828E+000      6.2152E+005
      2.5908E+000      6.2399E+005
      2.5988E+000      6.2612E+005
      2.6067E+000      6.2789E+005
      2.6147E+000      6.2930E+005
      2.6227E+000      6.3033E+005
      2.6307E+000      6.3099E+005
      2.6387E+000      6.3128E+005
      2.6467E+000      6.3121E+005
      2.6547E+000      6.3077E+005
      2.6627E+000      6.2998E+005
      2.6707E+000      6.2881E+005
      2.6787E+000      6.2727E+005
      2.6866E+000      6.2535E+005
      2.6946E+000      6.2303E+005
      2.7026E+000      6.2030E+005
      2.7106E+000      6.1713E+005
      2.7186E+000      6.1351E+005
      2.7266E+000      6.0943E+005
      2.7346E+000      6.0485E+005
      2.7426E+000      5.9979E+005
      2.7506E+000      5.9424E+005
      2.7586E+000      5.8820E+005
      2.7666E+000      5.8171E+005
      2.7745E+000      5.7479E+005
      2.7825E+000      5.6749E+005
      2.7905E+000      5.5989E+005
      2.7985E+000      5.5205E+005
      2.8065E+000      5.4407E+005
      2.8145E+000      5.3606E+005
      2.8225E+000      5.2812E+005
      2.8305E+000      5.2038E+005
      2.8385E+000      5.1295E+005
      2.8464E+000      5.0596E+005
      2.8544E+000      4.9950E+005
      2.8624E+000      4.9368E+005
      2.8704E+000      4.8858E+005
      2.8784E+000      4.8426E+005
      2.8864E+000      4.8077E+005
      2.8944E+000      4.7815E+005
      2.9024E+000      4.7639E+005
      2.9104E+000      4.7550E+005
      2.9184E+000      4.7545E+005
      2.9263E+000      4.7621E+005
      2.9343E+000      4.7774E+005
      2.9423E+000      4.7998E+005
      2.9503E+000      4.8288E+005
      2.9583E+000      4.8638E+005
      2.9663E+000      4.9039E+005
      2.9743E+000      4.9487E+005
      2.9823E+000      4.9973E+005
      2.9903E+000      5.0490E+005
      2.9983E+000      5.1033E+005
      3.0063E+000      5.1594E+005
      3.0142E+000      5.2166E+005
      3.0222E+000      5.2743E+005
      3.0302E+000      5.3320E+005
      3.0382E+000      5.3891E+005
      3.0462E+000      5.4451E+005
      3.0542E+000      5.4998E+005
      3.0622E+000      5.5527E+005
      3.0702E+000      5.6036E+005
      3.0782E+000      5.6524E+005
      3.0861E+000      5.6991E+005
      3.0941E+000      5.7439E+005
      3.1021E+000      5.7868E+005
      3.1101E+000      5.8283E+005
      3.1181E+000      5.8687E+005
      3.1261E+000      5.9085E+005
      3.1341E+000      5.9484E+005
      3.1421E+000      5.9888E+005
      3.1501E+000      6.0305E+005
      3.1581E+000      6.0741E+005
      3.1660E+000      6.1201E+005
      3.1740E+000      6.1691E+005
      3.1820E+000      6.2215E+005
      3.1900E+000      6.2776E+005
      3.1980E+000      6.3376E+005
      3.2060E+000      6.4015E+005
      3.2140E+000      6.4693E+005
      3.2220E+000      6.5406E+005
      3.2300E+000      6.6151E+005
      3.2380E+000      6.6923E+005
      3.2460E+000      6.7715E+005
      3.2539E+000      6.8521E+005
      3.2619E+000      6.9333E+005
      3.2699E+000      7.0144E+005
      3.2779E+000      7.0944E+005
      3.2859E+000      7.1728E+005
      3.2939E+000      7.2486E+005
      3.3019E+000      7.3213E+005
      3.3099E+000      7.3903E+005
      3.3179E+000      7.4550E+005
      3.3258E+000      7.5150E+005
      3.3338E+000      7.5700E+005
      3.3418E+000      7.6199E+005
      3.3498E+000      7.6645E+005
      3.3578E+000      7.7038E+005
      3.3658E+000      7.7380E+005
      3.3738E+000      7.7673E+005
      3.3818E+000      7.7918E+005
      3.3898E+000      7.8119E+005
      3.3978E+000      7.8278E+005
      3.4057E+000      7.8400E+005
      3.4137E+000      7.8488E+005
      3.4217E+000      7.8544E+005
      3.4297E+000      7.8572E+005
      3.4377E+000      7.8573E+005
      3.4457E+000      7.8551E+005
      3.4537E+000      7.8507E+005
      3.4617E+000      7.8442E+005
      3.4697E+000      7.8358E+005
      3.4777E+000      7.8255E+005
      3.4857E+000      7.8135E+005
      3.4936E+000      7.7998E+005
      3.5016E+000      7.7845E+005
      3.5096E+000      7.7678E+005
      3.5176E+000      7.7499E+005
      3.5256E+000      7.7310E+005
      3.5336E+000      7.7116E+005
      3.5416E+000      7.6918E+005
      3.5496E+000      7.6722E+005
      3.5576E+000      7.6533E+005
      3.5655E+000      7.6354E+005
      3.5735E+000      7.6192E+005
      3.5815E+000      7.6050E+005
      3.5895E+000      7.5934E+005
      3.5975E+000      7.5847E+005
      3.6055E+000      7.5792E+005
      3.6135E+000      7.5770E+005
      3.6215E+000      7.5783E+005
      3.6295E+000      7.5827E+005
      3.6375E+000      7.5902E+005
      3.6454E+000      7.6002E+005
      3.6534E+000      7.6122E+005
      3.6614E+000      7.6255E+005
      3.6694E+000      7.6391E+005
      3.6774E+000      7.6522E+005
      3.6854E+000      7.6636E+005
      3.6934E+000      7.6724E+005
      3.7014E+000      7.6774E+005
      3.7094E+000      7.6775E+005
      3.7174E+000      7.6716E+005
      3.7254E+000      7.6587E+005
      3.7333E+000      7.6380E+005
      3.7413E+000      7.6086E+005
      3.7493E+000      7.5701E+005
      3.7573E+000      7.5218E+005
      3.7653E+000      7.4638E+005
      3.7733E+000      7.3961E+005
      3.7813E+000      7.3190E+005
      3.7893E+000      7.2333E+005
      3.7973E+000      7.1398E+005
      3.8053E+000      7.0399E+005
      3.8132E+000      6.9353E+005
      3.8212E+000      6.8278E+005
      3.8292E+000      6.7196E+005
      3.8372E+000      6.6129E+005
      3.8452E+000      6.5102E+005
      3.8532E+000      6.4137E+005
      3.8612E+000      6.3258E+005
      3.8692E+000      6.2484E+005
      3.8772E+000      6.1832E+005
      3.8851E+000      6.1314E+005
      3.8931E+000      6.0939E+005
      3.9011E+000      6.0711E+005
      3.9091E+000      6.0630E+005
      3.9171E+000      6.0692E+005
      3.9251E+000      6.0891E+005
      3.9331E+000      6.1218E+005
      3.9411E+000      6.1660E+005
      3.9491E+000      6.2206E+005
      3.9571E+000      6.2842E+005
      3.9651E+000      6.3554E+005
      3.9730E+000      6.4328E+005
      3.9810E+000      6.5152E+005
      3.9890E+000      6.6011E+005
      3.9970E+000      6.6893E+005
      4.0050E+000      6.7787E+005
      4.0130E+000      6.8682E+005
      4.0210E+000      6.9568E+005
      4.0290E+000      7.0436E+005
      4.0370E+000      7.1278E+005
      4.0450E+000      7.2086E+005
      4.0529E+000      7.2854E+005
      4.0609E+000      7.3575E+005
      4.0689E+000      7.4245E+005
      4.0769E+000      7.4859E+005
      4.0849E+000      7.5412E+005
      4.0929E+000      7.5901E+005
      4.1009E+000      7.6322E+005
      4.1089E+000      7.6672E+005
      4.1169E+000      7.6950E+005
      4.1249E+000      7.7152E+005
      4.1328E+000      7.7279E+005
      4.1408E+000      7.7328E+005
      4.1488E+000      7.7301E+005
      4.1568E+000      7.7198E+005
      4.1648E+000      7.7021E+005
      4.1728E+000      7.6773E+005
      4.1808E+000      7.6456E+005
      4.1888E+000      7.6076E+005
      4.1968E+000      7.5639E+005
      4.2047E+000      7.5151E+005
      4.2127E+000      7.4621E+005
      4.2207E+000      7.4056E+005
      4.2287E+000      7.3468E+005
      4.2367E+000      7.2867E+005
      4.2447E+000      7.2262E+005
      4.2527E+000      7.1667E+005
      4.2607E+000      7.1092E+005
      4.2687E+000      7.0549E+005
      4.2767E+000      7.0048E+005
      4.2847E+000      6.9600E+005
      4.2926E+000      6.9215E+005
      4.3006E+000      6.8901E+005
      4.3086E+000      6.8667E+005
      4.3166E+000      6.8519E+005
      4.3246E+000      6.8463E+005
      4.3326E+000      6.8504E+005
      4.3406E+000      6.8646E+005
      4.3486E+000      6.8891E+005
      4.3566E+000      6.9243E+005
      4.3646E+000      6.9703E+005
      4.3725E+000      7.0271E+005
      4.3805E+000      7.0949E+005
      4.3885E+000      7.1736E+005
      4.3965E+000      7.2631E+005
      4.4045E+000      7.3634E+005
      4.4125E+000      7.4743E+005
      4.4205E+000      7.5954E+005
      4.4285E+000      7.7266E+005
      4.4365E+000      7.8674E+005
      4.4444E+000      8.0174E+005
      4.4524E+000      8.1761E+005
      4.4604E+000      8.3428E+005
      4.4684E+000      8.5168E+005
      4.4764E+000      8.6973E+005
      4.4844E+000      8.8835E+005
      4.4924E+000      9.0743E+005
      4.5004E+000      9.2687E+005
      4.5084E+000      9.4656E+005
      4.5164E+000      9.6638E+005
      4.5244E+000      9.8620E+005
      4.5323E+000      1.0059E+006
      4.5403E+000      1.0253E+006
      4.5483E+000      1.0444E+006
