# Lorentzian broadening used, width        1.0000E-01 eV
# \omega [eV], \alpha_{z}
      1.0000E-002      1.0086E+000
      1.7990E-002      3.2650E+000
      2.5980E-002      6.8113E+000
      3.3970E-002      1.1650E+001
      4.1960E-002      1.7784E+001
      4.9950E-002      2.5218E+001
      5.7940E-002      3.3956E+001
      6.5930E-002      4.4004E+001
      7.3920E-002      5.5370E+001
      8.1910E-002      6.8060E+001
      8.9900E-002      8.2084E+001
      9.7890E-002      9.7450E+001
      1.0588E-001      1.1417E+002
      1.1387E-001      1.3225E+002
      1.2186E-001      1.5171E+002
      1.2985E-001      1.7256E+002
      1.3784E-001      1.9482E+002
      1.4583E-001      2.1849E+002
      1.5382E-001      2.4361E+002
      1.6181E-001      2.7017E+002
      1.6980E-001      2.9821E+002
      1.7779E-001      3.2775E+002
      1.8578E-001      3.5880E+002
      1.9377E-001      3.9138E+002
      2.0176E-001      4.2553E+002
      2.0975E-001      4.6126E+002
      2.1774E-001      4.9861E+002
      2.2573E-001      5.3759E+002
      2.3372E-001      5.7825E+002
      2.4171E-001      6.2061E+002
      2.4970E-001      6.6471E+002
      2.5769E-001      7.1057E+002
      2.6568E-001      7.5825E+002
      2.7367E-001      8.0776E+002
      2.8166E-001      8.5917E+002
      2.8965E-001      9.1250E+002
      2.9764E-001      9.6780E+002
      3.0563E-001      1.0251E+003
      3.1362E-001      1.0845E+003
      3.2161E-001      1.1460E+003
      3.2960E-001      1.2097E+003
      3.3759E-001      1.2756E+003
      3.4558E-001      1.3439E+003
      3.5357E-001      1.4144E+003
      3.6156E-001      1.4874E+003
      3.6955E-001      1.5629E+003
      3.7754E-001      1.6410E+003
      3.8553E-001      1.7217E+003
      3.9352E-001      1.8051E+003
      4.0151E-001      1.8914E+003
      4.0950E-001      1.9805E+003
      4.1749E-001      2.0727E+003
      4.2548E-001      2.1680E+003
      4.3347E-001      2.2664E+003
      4.4146E-001      2.3682E+003
      4.4945E-001      2.4735E+003
      4.5744E-001      2.5823E+003
      4.6543E-001      2.6948E+003
      4.7342E-001      2.8112E+003
      4.8141E-001      2.9315E+003
      4.8940E-001      3.0560E+003
      4.9739E-001      3.1849E+003
      5.0538E-001      3.3182E+003
      5.1337E-001      3.4562E+003
      5.2136E-001      3.5991E+003
      5.2935E-001      3.7471E+003
      5.3734E-001      3.9005E+003
      5.4533E-001      4.0594E+003
      5.5332E-001      4.2242E+003
      5.6131E-001      4.3950E+003
      5.6930E-001      4.5723E+003
      5.7729E-001      4.7563E+003
      5.8528E-001      4.9474E+003
      5.9327E-001      5.1458E+003
      6.0126E-001      5.3521E+003
      6.0925E-001      5.5666E+003
      6.1724E-001      5.7898E+003
      6.2523E-001      6.0222E+003
      6.3322E-001      6.2642E+003
      6.4121E-001      6.5164E+003
      6.4920E-001      6.7795E+003
      6.5719E-001      7.0541E+003
      6.6518E-001      7.3409E+003
      6.7317E-001      7.6406E+003
      6.8116E-001      7.9542E+003
      6.8915E-001      8.2824E+003
      6.9714E-001      8.6263E+003
      7.0513E-001      8.9870E+003
      7.1312E-001      9.3657E+003
      7.2111E-001      9.7635E+003
      7.2910E-001      1.0182E+004
      7.3709E-001      1.0623E+004
      7.4508E-001      1.1087E+004
      7.5307E-001      1.1577E+004
      7.6106E-001      1.2095E+004
      7.6905E-001      1.2643E+004
      7.7704E-001      1.3223E+004
      7.8503E-001      1.3839E+004
      7.9302E-001      1.4493E+004
      8.0101E-001      1.5189E+004
      8.0900E-001      1.5930E+004
      8.1699E-001      1.6721E+004
      8.2498E-001      1.7567E+004
      8.3297E-001      1.8472E+004
      8.4096E-001      1.9443E+004
      8.4895E-001      2.0487E+004
      8.5694E-001      2.1610E+004
      8.6493E-001      2.2821E+004
      8.7292E-001      2.4129E+004
      8.8091E-001      2.5545E+004
      8.8890E-001      2.7081E+004
      8.9689E-001      2.8749E+004
      9.0488E-001      3.0564E+004
      9.1287E-001      3.2543E+004
      9.2086E-001      3.4704E+004
      9.2885E-001      3.7065E+004
      9.3684E-001      3.9649E+004
      9.4483E-001      4.2479E+004
      9.5282E-001      4.5577E+004
      9.6081E-001      4.8968E+004
      9.6880E-001      5.2674E+004
      9.7679E-001      5.6715E+004
      9.8478E-001      6.1105E+004
      9.9277E-001      6.5847E+004
      1.0008E+000      7.0933E+004
      1.0088E+000      7.6330E+004
      1.0167E+000      8.1982E+004
      1.0247E+000      8.7799E+004
      1.0327E+000      9.3653E+004
      1.0407E+000      9.9380E+004
      1.0487E+000      1.0478E+005
      1.0567E+000      1.0964E+005
      1.0647E+000      1.1375E+005
      1.0727E+000      1.1691E+005
      1.0807E+000      1.1899E+005
      1.0887E+000      1.1994E+005
      1.0966E+000      1.1979E+005
      1.1046E+000      1.1862E+005
      1.1126E+000      1.1660E+005
      1.1206E+000      1.1394E+005
      1.1286E+000      1.1083E+005
      1.1366E+000      1.0748E+005
      1.1446E+000      1.0406E+005
      1.1526E+000      1.0073E+005
      1.1606E+000      9.7596E+004
      1.1686E+000      9.4737E+004
      1.1765E+000      9.2214E+004
      1.1845E+000      9.0061E+004
      1.1925E+000      8.8299E+004
      1.2005E+000      8.6940E+004
      1.2085E+000      8.5985E+004
      1.2165E+000      8.5435E+004
      1.2245E+000      8.5289E+004
      1.2325E+000      8.5546E+004
      1.2405E+000      8.6207E+004
      1.2485E+000      8.7275E+004
      1.2564E+000      8.8756E+004
      1.2644E+000      9.0662E+004
      1.2724E+000      9.3008E+004
      1.2804E+000      9.5812E+004
      1.2884E+000      9.9100E+004
      1.2964E+000      1.0290E+005
      1.3044E+000      1.0725E+005
      1.3124E+000      1.1220E+005
      1.3204E+000      1.1778E+005
      1.3284E+000      1.2405E+005
      1.3363E+000      1.3107E+005
      1.3443E+000      1.3891E+005
      1.3523E+000      1.4763E+005
      1.3603E+000      1.5729E+005
      1.3683E+000      1.6796E+005
      1.3763E+000      1.7969E+005
      1.3843E+000      1.9252E+005
      1.3923E+000      2.0647E+005
      1.4003E+000      2.2150E+005
      1.4083E+000      2.3754E+005
      1.4162E+000      2.5445E+005
      1.4242E+000      2.7204E+005
      1.4322E+000      2.9001E+005
      1.4402E+000      3.0800E+005
      1.4482E+000      3.2560E+005
      1.4562E+000      3.4232E+005
      1.4642E+000      3.5767E+005
      1.4722E+000      3.7118E+005
      1.4802E+000      3.8239E+005
      1.4882E+000      3.9097E+005
      1.4961E+000      3.9666E+005
      1.5041E+000      3.9935E+005
      1.5121E+000      3.9906E+005
      1.5201E+000      3.9593E+005
      1.5281E+000      3.9020E+005
      1.5361E+000      3.8221E+005
      1.5441E+000      3.7234E+005
      1.5521E+000      3.6100E+005
      1.5601E+000      3.4859E+005
      1.5681E+000      3.3553E+005
      1.5760E+000      3.2217E+005
      1.5840E+000      3.0885E+005
      1.5920E+000      2.9584E+005
      1.6000E+000      2.8339E+005
      1.6080E+000      2.7164E+005
      1.6160E+000      2.6072E+005
      1.6240E+000      2.5069E+005
      1.6320E+000      2.4153E+005
      1.6400E+000      2.3322E+005
      1.6480E+000      2.2569E+005
      1.6559E+000      2.1883E+005
      1.6639E+000      2.1255E+005
      1.6719E+000      2.0676E+005
      1.6799E+000      2.0135E+005
      1.6879E+000      1.9628E+005
      1.6959E+000      1.9150E+005
      1.7039E+000      1.8700E+005
      1.7119E+000      1.8280E+005
      1.7199E+000      1.7892E+005
      1.7279E+000      1.7541E+005
      1.7358E+000      1.7231E+005
      1.7438E+000      1.6967E+005
      1.7518E+000      1.6753E+005
      1.7598E+000      1.6594E+005
      1.7678E+000      1.6491E+005
      1.7758E+000      1.6448E+005
      1.7838E+000      1.6468E+005
      1.7918E+000      1.6552E+005
      1.7998E+000      1.6702E+005
      1.8078E+000      1.6922E+005
      1.8157E+000      1.7213E+005
      1.8237E+000      1.7578E+005
      1.8317E+000      1.8020E+005
      1.8397E+000      1.8542E+005
      1.8477E+000      1.9145E+005
      1.8557E+000      1.9831E+005
      1.8637E+000      2.0602E+005
      1.8717E+000      2.1456E+005
      1.8797E+000      2.2390E+005
      1.8877E+000      2.3398E+005
      1.8956E+000      2.4468E+005
      1.9036E+000      2.5588E+005
      1.9116E+000      2.6741E+005
      1.9196E+000      2.7906E+005
      1.9276E+000      2.9064E+005
      1.9356E+000      3.0197E+005
      1.9436E+000      3.1291E+005
      1.9516E+000      3.2340E+005
      1.9596E+000      3.3343E+005
      1.9676E+000      3.4310E+005
      1.9755E+000      3.5254E+005
      1.9835E+000      3.6194E+005
      1.9915E+000      3.7151E+005
      1.9995E+000      3.8148E+005
      2.0075E+000      3.9202E+005
      2.0155E+000      4.0330E+005
      2.0235E+000      4.1538E+005
      2.0315E+000      4.2828E+005
      2.0395E+000      4.4189E+005
      2.0474E+000      4.5601E+005
      2.0554E+000      4.7035E+005
      2.0634E+000      4.8456E+005
      2.0714E+000      4.9825E+005
      2.0794E+000      5.1106E+005
      2.0874E+000      5.2264E+005
      2.0954E+000      5.3275E+005
      2.1034E+000      5.4118E+005
      2.1114E+000      5.4782E+005
      2.1194E+000      5.5261E+005
      2.1273E+000      5.5553E+005
      2.1353E+000      5.5661E+005
      2.1433E+000      5.5591E+005
      2.1513E+000      5.5356E+005
      2.1593E+000      5.4972E+005
      2.1673E+000      5.4464E+005
      2.1753E+000      5.3858E+005
      2.1833E+000      5.3190E+005
      2.1913E+000      5.2494E+005
      2.1993E+000      5.1809E+005
      2.2073E+000      5.1169E+005
      2.2152E+000      5.0608E+005
      2.2232E+000      5.0154E+005
      2.2312E+000      4.9830E+005
      2.2392E+000      4.9656E+005
      2.2472E+000      4.9644E+005
      2.2552E+000      4.9800E+005
      2.2632E+000      5.0120E+005
      2.2712E+000      5.0592E+005
      2.2792E+000      5.1192E+005
      2.2872E+000      5.1883E+005
      2.2951E+000      5.2621E+005
      2.3031E+000      5.3352E+005
      2.3111E+000      5.4021E+005
      2.3191E+000      5.4579E+005
      2.3271E+000      5.4986E+005
      2.3351E+000      5.5219E+005
      2.3431E+000      5.5271E+005
      2.3511E+000      5.5157E+005
      2.3591E+000      5.4904E+005
      2.3670E+000      5.4552E+005
      2.3750E+000      5.4144E+005
      2.3830E+000      5.3727E+005
      2.3910E+000      5.3341E+005
      2.3990E+000      5.3024E+005
      2.4070E+000      5.2805E+005
      2.4150E+000      5.2707E+005
      2.4230E+000      5.2746E+005
      2.4310E+000      5.2928E+005
      2.4390E+000      5.3255E+005
      2.4470E+000      5.3717E+005
      2.4549E+000      5.4297E+005
      2.4629E+000      5.4969E+005
      2.4709E+000      5.5697E+005
      2.4789E+000      5.6437E+005
      2.4869E+000      5.7147E+005
      2.4949E+000      5.7785E+005
      2.5029E+000      5.8318E+005
      2.5109E+000      5.8729E+005
      2.5189E+000      5.9014E+005
      2.5269E+000      5.9184E+005
      2.5348E+000      5.9262E+005
      2.5428E+000      5.9274E+005
      2.5508E+000      5.9246E+005
      2.5588E+000      5.9200E+005
      2.5668E+000      5.9146E+005
      2.5748E+000      5.9085E+005
      2.5828E+000      5.9009E+005
      2.5908E+000      5.8906E+005
      2.5988E+000      5.8761E+005
      2.6067E+000      5.8563E+005
      2.6147E+000      5.8306E+005
      2.6227E+000      5.7991E+005
      2.6307E+000      5.7624E+005
      2.6387E+000      5.7216E+005
      2.6467E+000      5.6781E+005
      2.6547E+000      5.6332E+005
      2.6627E+000      5.5884E+005
      2.6707E+000      5.5453E+005
      2.6787E+000      5.5053E+005
      2.6866E+000      5.4702E+005
      2.6946E+000      5.4415E+005
      2.7026E+000      5.4203E+005
      2.7106E+000      5.4075E+005
      2.7186E+000      5.4031E+005
      2.7266E+000      5.4065E+005
      2.7346E+000      5.4165E+005
      2.7426E+000      5.4313E+005
      2.7506E+000      5.4494E+005
      2.7586E+000      5.4691E+005
      2.7666E+000      5.4894E+005
      2.7745E+000      5.5099E+005
      2.7825E+000      5.5304E+005
      2.7905E+000      5.5512E+005
      2.7985E+000      5.5727E+005
      2.8065E+000      5.5950E+005
      2.8145E+000      5.6180E+005
      2.8225E+000      5.6411E+005
      2.8305E+000      5.6636E+005
      2.8385E+000      5.6844E+005
      2.8464E+000      5.7028E+005
      2.8544E+000      5.7183E+005
      2.8624E+000      5.7313E+005
      2.8704E+000      5.7424E+005
      2.8784E+000      5.7529E+005
      2.8864E+000      5.7641E+005
      2.8944E+000      5.7771E+005
      2.9024E+000      5.7927E+005
      2.9104E+000      5.8111E+005
      2.9184E+000      5.8322E+005
      2.9263E+000      5.8557E+005
      2.9343E+000      5.8813E+005
      2.9423E+000      5.9088E+005
      2.9503E+000      5.9384E+005
      2.9583E+000      5.9707E+005
      2.9663E+000      6.0062E+005
      2.9743E+000      6.0454E+005
      2.9823E+000      6.0885E+005
      2.9903E+000      6.1353E+005
      2.9983E+000      6.1848E+005
      3.0063E+000      6.2356E+005
      3.0142E+000      6.2861E+005
      3.0222E+000      6.3349E+005
      3.0302E+000      6.3811E+005
      3.0382E+000      6.4245E+005
      3.0462E+000      6.4661E+005
      3.0542E+000      6.5072E+005
      3.0622E+000      6.5497E+005
      3.0702E+000      6.5956E+005
      3.0782E+000      6.6470E+005
      3.0861E+000      6.7054E+005
      3.0941E+000      6.7721E+005
      3.1021E+000      6.8478E+005
      3.1101E+000      6.9327E+005
      3.1181E+000      7.0262E+005
      3.1261E+000      7.1268E+005
      3.1341E+000      7.2326E+005
      3.1421E+000      7.3409E+005
      3.1501E+000      7.4488E+005
      3.1581E+000      7.5537E+005
      3.1660E+000      7.6531E+005
      3.1740E+000      7.7454E+005
      3.1820E+000      7.8295E+005
      3.1900E+000      7.9051E+005
      3.1980E+000      7.9726E+005
      3.2060E+000      8.0330E+005
      3.2140E+000      8.0880E+005
      3.2220E+000      8.1400E+005
      3.2300E+000      8.1916E+005
      3.2380E+000      8.2456E+005
      3.2460E+000      8.3047E+005
      3.2539E+000      8.3709E+005
      3.2619E+000      8.4456E+005
      3.2699E+000      8.5289E+005
      3.2779E+000      8.6197E+005
      3.2859E+000      8.7159E+005
      3.2939E+000      8.8144E+005
      3.3019E+000      8.9115E+005
      3.3099E+000      9.0035E+005
      3.3179E+000      9.0875E+005
      3.3258E+000      9.1615E+005
      3.3338E+000      9.2244E+005
      3.3418E+000      9.2759E+005
      3.3498E+000      9.3163E+005
      3.3578E+000      9.3456E+005
      3.3658E+000      9.3635E+005
      3.3738E+000      9.3690E+005
      3.3818E+000      9.3610E+005
      3.3898E+000      9.3382E+005
      3.3978E+000      9.2998E+005
      3.4057E+000      9.2456E+005
      3.4137E+000      9.1762E+005
      3.4217E+000      9.0931E+005
      3.4297E+000      8.9986E+005
      3.4377E+000      8.8953E+005
      3.4457E+000      8.7860E+005
      3.4537E+000      8.6737E+005
      3.4617E+000      8.5611E+005
      3.4697E+000      8.4507E+005
      3.4777E+000      8.3448E+005
      3.4857E+000      8.2456E+005
      3.4936E+000      8.1545E+005
      3.5016E+000      8.0730E+005
      3.5096E+000      8.0019E+005
      3.5176E+000      7.9416E+005
      3.5256E+000      7.8921E+005
      3.5336E+000      7.8530E+005
      3.5416E+000      7.8235E+005
      3.5496E+000      7.8029E+005
      3.5576E+000      7.7903E+005
      3.5655E+000      7.7849E+005
      3.5735E+000      7.7856E+005
      3.5815E+000      7.7914E+005
      3.5895E+000      7.8007E+005
      3.5975E+000      7.8116E+005
      3.6055E+000      7.8221E+005
      3.6135E+000      7.8297E+005
      3.6215E+000      7.8323E+005
      3.6295E+000      7.8280E+005
      3.6375E+000      7.8157E+005
      3.6454E+000      7.7946E+005
      3.6534E+000      7.7654E+005
      3.6614E+000      7.7292E+005
      3.6694E+000      7.6885E+005
      3.6774E+000      7.6459E+005
      3.6854E+000      7.6050E+005
      3.6934E+000      7.5690E+005
      3.7014E+000      7.5411E+005
      3.7094E+000      7.5234E+005
      3.7174E+000      7.5172E+005
      3.7254E+000      7.5229E+005
      3.7333E+000      7.5395E+005
      3.7413E+000      7.5653E+005
      3.7493E+000      7.5980E+005
      3.7573E+000      7.6353E+005
      3.7653E+000      7.6755E+005
      3.7733E+000      7.7172E+005
      3.7813E+000      7.7600E+005
      3.7893E+000      7.8037E+005
      3.7973E+000      7.8485E+005
      3.8053E+000      7.8944E+005
      3.8132E+000      7.9405E+005
      3.8212E+000      7.9857E+005
      3.8292E+000      8.0281E+005
      3.8372E+000      8.0653E+005
      3.8452E+000      8.0950E+005
      3.8532E+000      8.1151E+005
      3.8612E+000      8.1242E+005
      3.8692E+000      8.1213E+005
      3.8772E+000      8.1066E+005
      3.8851E+000      8.0808E+005
      3.8931E+000      8.0455E+005
      3.9011E+000      8.0027E+005
      3.9091E+000      7.9551E+005
      3.9171E+000      7.9054E+005
      3.9251E+000      7.8564E+005
      3.9331E+000      7.8109E+005
      3.9411E+000      7.7711E+005
      3.9491E+000      7.7388E+005
      3.9571E+000      7.7151E+005
      3.9651E+000      7.7004E+005
      3.9730E+000      7.6942E+005
      3.9810E+000      7.6954E+005
      3.9890E+000      7.7024E+005
      3.9970E+000      7.7129E+005
      4.0050E+000      7.7247E+005
      4.0130E+000      7.7358E+005
      4.0210E+000      7.7447E+005
      4.0290E+000      7.7504E+005
      4.0370E+000      7.7527E+005
      4.0450E+000      7.7520E+005
      4.0529E+000      7.7488E+005
      4.0609E+000      7.7439E+005
      4.0689E+000      7.7382E+005
      4.0769E+000      7.7323E+005
      4.0849E+000      7.7265E+005
      4.0929E+000      7.7210E+005
      4.1009E+000      7.7158E+005
      4.1089E+000      7.7107E+005
      4.1169E+000      7.7061E+005
      4.1249E+000      7.7022E+005
      4.1328E+000      7.6996E+005
      4.1408E+000      7.6989E+005
      4.1488E+000      7.7012E+005
      4.1568E+000      7.7072E+005
      4.1648E+000      7.7178E+005
      4.1728E+000      7.7342E+005
      4.1808E+000      7.7572E+005
      4.1888E+000      7.7881E+005
      4.1968E+000      7.8278E+005
      4.2047E+000      7.8773E+005
      4.2127E+000      7.9371E+005
      4.2207E+000      8.0076E+005
      4.2287E+000      8.0886E+005
      4.2367E+000      8.1797E+005
      4.2447E+000      8.2798E+005
      4.2527E+000      8.3880E+005
      4.2607E+000      8.5027E+005
      4.2687E+000      8.6224E+005
      4.2767E+000      8.7449E+005
      4.2847E+000      8.8677E+005
      4.2926E+000      8.9880E+005
      4.3006E+000      9.1025E+005
      4.3086E+000      9.2077E+005
      4.3166E+000      9.3006E+005
      4.3246E+000      9.3782E+005
      4.3326E+000      9.4386E+005
      4.3406E+000      9.4805E+005
      4.3486E+000      9.5040E+005
      4.3566E+000      9.5101E+005
      4.3646E+000      9.5012E+005
      4.3725E+000      9.4801E+005
      4.3805E+000      9.4507E+005
      4.3885E+000      9.4170E+005
      4.3965E+000      9.3832E+005
      4.4045E+000      9.3533E+005
      4.4125E+000      9.3311E+005
      4.4205E+000      9.3196E+005
      4.4285E+000      9.3211E+005
      4.4365E+000      9.3371E+005
      4.4444E+000      9.3682E+005
      4.4524E+000      9.4144E+005
      4.4604E+000      9.4746E+005
      4.4684E+000      9.5475E+005
      4.4764E+000      9.6311E+005
      4.4844E+000      9.7229E+005
      4.4924E+000      9.8203E+005
      4.5004E+000      9.9203E+005
      4.5084E+000      1.0020E+006
      4.5164E+000      1.0116E+006
      4.5244E+000      1.0207E+006
      4.5323E+000      1.0291E+006
      4.5403E+000      1.0367E+006
      4.5483E+000      1.0435E+006
