# Lorentzian broadening used, width        1.0000E-01 eV
# \omega [eV], \alpha_{y}
      1.0000E-002      9.2586E-001
      1.7990E-002      2.9811E+000
      2.5980E-002      6.2078E+000
      3.3970E-002      1.0610E+001
      4.1960E-002      1.6195E+001
      4.9950E-002      2.2970E+001
      5.7940E-002      3.0945E+001
      6.5930E-002      4.0130E+001
      7.3920E-002      5.0539E+001
      8.1910E-002      6.2188E+001
      8.9900E-002      7.5092E+001
      9.7890E-002      8.9272E+001
      1.0588E-001      1.0475E+002
      1.1387E-001      1.2154E+002
      1.2186E-001      1.3968E+002
      1.2985E-001      1.5919E+002
      1.3784E-001      1.8010E+002
      1.4583E-001      2.0244E+002
      1.5382E-001      2.2626E+002
      1.6181E-001      2.5158E+002
      1.6980E-001      2.7846E+002
      1.7779E-001      3.0692E+002
      1.8578E-001      3.3703E+002
      1.9377E-001      3.6883E+002
      2.0176E-001      4.0238E+002
      2.0975E-001      4.3774E+002
      2.1774E-001      4.7497E+002
      2.2573E-001      5.1414E+002
      2.3372E-001      5.5533E+002
      2.4171E-001      5.9861E+002
      2.4970E-001      6.4407E+002
      2.5769E-001      6.9180E+002
      2.6568E-001      7.4190E+002
      2.7367E-001      7.9448E+002
      2.8166E-001      8.4965E+002
      2.8965E-001      9.0754E+002
      2.9764E-001      9.6827E+002
      3.0563E-001      1.0320E+003
      3.1362E-001      1.0989E+003
      3.2161E-001      1.1690E+003
      3.2960E-001      1.2427E+003
      3.3759E-001      1.3200E+003
      3.4558E-001      1.4013E+003
      3.5357E-001      1.4867E+003
      3.6156E-001      1.5764E+003
      3.6955E-001      1.6708E+003
      3.7754E-001      1.7701E+003
      3.8553E-001      1.8746E+003
      3.9352E-001      1.9848E+003
      4.0151E-001      2.1009E+003
      4.0950E-001      2.2234E+003
      4.1749E-001      2.3527E+003
      4.2548E-001      2.4893E+003
      4.3347E-001      2.6338E+003
      4.4146E-001      2.7868E+003
      4.4945E-001      2.9489E+003
      4.5744E-001      3.1207E+003
      4.6543E-001      3.3032E+003
      4.7342E-001      3.4972E+003
      4.8141E-001      3.7036E+003
      4.8940E-001      3.9235E+003
      4.9739E-001      4.1582E+003
      5.0538E-001      4.4088E+003
      5.1337E-001      4.6768E+003
      5.2136E-001      4.9640E+003
      5.2935E-001      5.2721E+003
      5.3734E-001      5.6030E+003
      5.4533E-001      5.9592E+003
      5.5332E-001      6.3431E+003
      5.6131E-001      6.7576E+003
      5.6930E-001      7.2058E+003
      5.7729E-001      7.6915E+003
      5.8528E-001      8.2185E+003
      5.9327E-001      8.7916E+003
      6.0126E-001      9.4157E+003
      6.0925E-001      1.0097E+004
      6.1724E-001      1.0841E+004
      6.2523E-001      1.1656E+004
      6.3322E-001      1.2551E+004
      6.4121E-001      1.3533E+004
      6.4920E-001      1.4613E+004
      6.5719E-001      1.5803E+004
      6.6518E-001      1.7115E+004
      6.7317E-001      1.8563E+004
      6.8116E-001      2.0159E+004
      6.8915E-001      2.1919E+004
      6.9714E-001      2.3858E+004
      7.0513E-001      2.5987E+004
      7.1312E-001      2.8319E+004
      7.2111E-001      3.0858E+004
      7.2910E-001      3.3604E+004
      7.3709E-001      3.6544E+004
      7.4508E-001      3.9654E+004
      7.5307E-001      4.2890E+004
      7.6106E-001      4.6184E+004
      7.6905E-001      4.9448E+004
      7.7704E-001      5.2571E+004
      7.8503E-001      5.5424E+004
      7.9302E-001      5.7872E+004
      8.0101E-001      5.9791E+004
      8.0900E-001      6.1080E+004
      8.1699E-001      6.1675E+004
      8.2498E-001      6.1565E+004
      8.3297E-001      6.0784E+004
      8.4096E-001      5.9409E+004
      8.4895E-001      5.7546E+004
      8.5694E-001      5.5317E+004
      8.6493E-001      5.2842E+004
      8.7292E-001      5.0232E+004
      8.8091E-001      4.7583E+004
      8.8890E-001      4.4968E+004
      8.9689E-001      4.2444E+004
      9.0488E-001      4.0047E+004
      9.1287E-001      3.7802E+004
      9.2086E-001      3.5720E+004
      9.2885E-001      3.3807E+004
      9.3684E-001      3.2060E+004
      9.4483E-001      3.0474E+004
      9.5282E-001      2.9040E+004
      9.6081E-001      2.7751E+004
      9.6880E-001      2.6597E+004
      9.7679E-001      2.5567E+004
      9.8478E-001      2.4653E+004
      9.9277E-001      2.3847E+004
      1.0008E+000      2.3140E+004
      1.0088E+000      2.2525E+004
      1.0167E+000      2.1995E+004
      1.0247E+000      2.1542E+004
      1.0327E+000      2.1161E+004
      1.0407E+000      2.0844E+004
      1.0487E+000      2.0583E+004
      1.0567E+000      2.0372E+004
      1.0647E+000      2.0203E+004
      1.0727E+000      2.0066E+004
      1.0807E+000      1.9953E+004
      1.0887E+000      1.9858E+004
      1.0966E+000      1.9773E+004
      1.1046E+000      1.9695E+004
      1.1126E+000      1.9622E+004
      1.1206E+000      1.9555E+004
      1.1286E+000      1.9497E+004
      1.1366E+000      1.9451E+004
      1.1446E+000      1.9424E+004
      1.1526E+000      1.9418E+004
      1.1606E+000      1.9440E+004
      1.1686E+000      1.9491E+004
      1.1765E+000      1.9577E+004
      1.1845E+000      1.9699E+004
      1.1925E+000      1.9859E+004
      1.2005E+000      2.0059E+004
      1.2085E+000      2.0301E+004
      1.2165E+000      2.0585E+004
      1.2245E+000      2.0914E+004
      1.2325E+000      2.1289E+004
      1.2405E+000      2.1712E+004
      1.2485E+000      2.2186E+004
      1.2564E+000      2.2714E+004
      1.2644E+000      2.3298E+004
      1.2724E+000      2.3942E+004
      1.2804E+000      2.4650E+004
      1.2884E+000      2.5428E+004
      1.2964E+000      2.6281E+004
      1.3044E+000      2.7215E+004
      1.3124E+000      2.8237E+004
      1.3204E+000      2.9355E+004
      1.3284E+000      3.0577E+004
      1.3363E+000      3.1914E+004
      1.3443E+000      3.3376E+004
      1.3523E+000      3.4973E+004
      1.3603E+000      3.6718E+004
      1.3683E+000      3.8622E+004
      1.3763E+000      4.0696E+004
      1.3843E+000      4.2949E+004
      1.3923E+000      4.5389E+004
      1.4003E+000      4.8019E+004
      1.4083E+000      5.0834E+004
      1.4162E+000      5.3823E+004
      1.4242E+000      5.6964E+004
      1.4322E+000      6.0221E+004
      1.4402E+000      6.3548E+004
      1.4482E+000      6.6886E+004
      1.4562E+000      7.0171E+004
      1.4642E+000      7.3341E+004
      1.4722E+000      7.6346E+004
      1.4802E+000      7.9154E+004
      1.4882E+000      8.1762E+004
      1.4961E+000      8.4196E+004
      1.5041E+000      8.6505E+004
      1.5121E+000      8.8757E+004
      1.5201E+000      9.1019E+004
      1.5281E+000      9.3356E+004
      1.5361E+000      9.5815E+004
      1.5441E+000      9.8424E+004
      1.5521E+000      1.0119E+005
      1.5601E+000      1.0411E+005
      1.5681E+000      1.0715E+005
      1.5760E+000      1.1030E+005
      1.5840E+000      1.1351E+005
      1.5920E+000      1.1676E+005
      1.6000E+000      1.2000E+005
      1.6080E+000      1.2320E+005
      1.6160E+000      1.2628E+005
      1.6240E+000      1.2918E+005
      1.6320E+000      1.3178E+005
      1.6400E+000      1.3399E+005
      1.6480E+000      1.3571E+005
      1.6559E+000      1.3686E+005
      1.6639E+000      1.3739E+005
      1.6719E+000      1.3731E+005
      1.6799E+000      1.3665E+005
      1.6879E+000      1.3548E+005
      1.6959E+000      1.3390E+005
      1.7039E+000      1.3199E+005
      1.7119E+000      1.2987E+005
      1.7199E+000      1.2762E+005
      1.7279E+000      1.2535E+005
      1.7358E+000      1.2313E+005
      1.7438E+000      1.2104E+005
      1.7518E+000      1.1917E+005
      1.7598E+000      1.1758E+005
      1.7678E+000      1.1632E+005
      1.7758E+000      1.1543E+005
      1.7838E+000      1.1495E+005
      1.7918E+000      1.1489E+005
      1.7998E+000      1.1527E+005
      1.8078E+000      1.1608E+005
      1.8157E+000      1.1730E+005
      1.8237E+000      1.1889E+005
      1.8317E+000      1.2083E+005
      1.8397E+000      1.2304E+005
      1.8477E+000      1.2549E+005
      1.8557E+000      1.2812E+005
      1.8637E+000      1.3089E+005
      1.8717E+000      1.3377E+005
      1.8797E+000      1.3678E+005
      1.8877E+000      1.3992E+005
      1.8956E+000      1.4321E+005
      1.9036E+000      1.4668E+005
      1.9116E+000      1.5035E+005
      1.9196E+000      1.5422E+005
      1.9276E+000      1.5830E+005
      1.9356E+000      1.6259E+005
      1.9436E+000      1.6708E+005
      1.9516E+000      1.7181E+005
      1.9596E+000      1.7680E+005
      1.9676E+000      1.8211E+005
      1.9755E+000      1.8781E+005
      1.9835E+000      1.9399E+005
      1.9915E+000      2.0071E+005
      1.9995E+000      2.0801E+005
      2.0075E+000      2.1591E+005
      2.0155E+000      2.2436E+005
      2.0235E+000      2.3326E+005
      2.0315E+000      2.4246E+005
      2.0395E+000      2.5170E+005
      2.0474E+000      2.6069E+005
      2.0554E+000      2.6911E+005
      2.0634E+000      2.7661E+005
      2.0714E+000      2.8287E+005
      2.0794E+000      2.8763E+005
      2.0874E+000      2.9071E+005
      2.0954E+000      2.9206E+005
      2.1034E+000      2.9169E+005
      2.1114E+000      2.8974E+005
      2.1194E+000      2.8643E+005
      2.1273E+000      2.8200E+005
      2.1353E+000      2.7675E+005
      2.1433E+000      2.7098E+005
      2.1513E+000      2.6496E+005
      2.1593E+000      2.5897E+005
      2.1673E+000      2.5323E+005
      2.1753E+000      2.4795E+005
      2.1833E+000      2.4331E+005
      2.1913E+000      2.3942E+005
      2.1993E+000      2.3643E+005
      2.2073E+000      2.3439E+005
      2.2152E+000      2.3339E+005
      2.2232E+000      2.3345E+005
      2.2312E+000      2.3460E+005
      2.2392E+000      2.3683E+005
      2.2472E+000      2.4011E+005
      2.2552E+000      2.4437E+005
      2.2632E+000      2.4950E+005
      2.2712E+000      2.5536E+005
      2.2792E+000      2.6174E+005
      2.2872E+000      2.6838E+005
      2.2951E+000      2.7500E+005
      2.3031E+000      2.8129E+005
      2.3111E+000      2.8698E+005
      2.3191E+000      2.9185E+005
      2.3271E+000      2.9577E+005
      2.3351E+000      2.9871E+005
      2.3431E+000      3.0078E+005
      2.3511E+000      3.0215E+005
      2.3591E+000      3.0306E+005
      2.3670E+000      3.0376E+005
      2.3750E+000      3.0452E+005
      2.3830E+000      3.0552E+005
      2.3910E+000      3.0695E+005
      2.3990E+000      3.0890E+005
      2.4070E+000      3.1143E+005
      2.4150E+000      3.1456E+005
      2.4230E+000      3.1826E+005
      2.4310E+000      3.2247E+005
      2.4390E+000      3.2709E+005
      2.4470E+000      3.3198E+005
      2.4549E+000      3.3701E+005
      2.4629E+000      3.4199E+005
      2.4709E+000      3.4673E+005
      2.4789E+000      3.5105E+005
      2.4869E+000      3.5480E+005
      2.4949E+000      3.5787E+005
      2.5029E+000      3.6020E+005
      2.5109E+000      3.6184E+005
      2.5189E+000      3.6285E+005
      2.5269E+000      3.6340E+005
      2.5348E+000      3.6366E+005
      2.5428E+000      3.6383E+005
      2.5508E+000      3.6406E+005
      2.5588E+000      3.6450E+005
      2.5668E+000      3.6524E+005
      2.5748E+000      3.6630E+005
      2.5828E+000      3.6769E+005
      2.5908E+000      3.6937E+005
      2.5988E+000      3.7129E+005
      2.6067E+000      3.7339E+005
      2.6147E+000      3.7559E+005
      2.6227E+000      3.7783E+005
      2.6307E+000      3.8002E+005
      2.6387E+000      3.8211E+005
      2.6467E+000      3.8406E+005
      2.6547E+000      3.8588E+005
      2.6627E+000      3.8761E+005
      2.6707E+000      3.8935E+005
      2.6787E+000      3.9121E+005
      2.6866E+000      3.9332E+005
      2.6946E+000      3.9578E+005
      2.7026E+000      3.9868E+005
      2.7106E+000      4.0204E+005
      2.7186E+000      4.0588E+005
      2.7266E+000      4.1017E+005
      2.7346E+000      4.1486E+005
      2.7426E+000      4.1989E+005
      2.7506E+000      4.2518E+005
      2.7586E+000      4.3064E+005
      2.7666E+000      4.3616E+005
      2.7745E+000      4.4161E+005
      2.7825E+000      4.4685E+005
      2.7905E+000      4.5176E+005
      2.7985E+000      4.5620E+005
      2.8065E+000      4.6002E+005
      2.8145E+000      4.6311E+005
      2.8225E+000      4.6532E+005
      2.8305E+000      4.6654E+005
      2.8385E+000      4.6667E+005
      2.8464E+000      4.6565E+005
      2.8544E+000      4.6347E+005
      2.8624E+000      4.6021E+005
      2.8704E+000      4.5601E+005
      2.8784E+000      4.5108E+005
      2.8864E+000      4.4565E+005
      2.8944E+000      4.3997E+005
      2.9024E+000      4.3431E+005
      2.9104E+000      4.2891E+005
      2.9184E+000      4.2399E+005
      2.9263E+000      4.1974E+005
      2.9343E+000      4.1635E+005
      2.9423E+000      4.1394E+005
      2.9503E+000      4.1259E+005
      2.9583E+000      4.1232E+005
      2.9663E+000      4.1313E+005
      2.9743E+000      4.1491E+005
      2.9823E+000      4.1752E+005
      2.9903E+000      4.2077E+005
      2.9983E+000      4.2443E+005
      3.0063E+000      4.2825E+005
      3.0142E+000      4.3199E+005
      3.0222E+000      4.3545E+005
      3.0302E+000      4.3848E+005
      3.0382E+000      4.4102E+005
      3.0462E+000      4.4307E+005
      3.0542E+000      4.4471E+005
      3.0622E+000      4.4604E+005
      3.0702E+000      4.4721E+005
      3.0782E+000      4.4836E+005
      3.0861E+000      4.4961E+005
      3.0941E+000      4.5109E+005
      3.1021E+000      4.5290E+005
      3.1101E+000      4.5511E+005
      3.1181E+000      4.5779E+005
      3.1261E+000      4.6098E+005
      3.1341E+000      4.6469E+005
      3.1421E+000      4.6892E+005
      3.1501E+000      4.7367E+005
      3.1581E+000      4.7891E+005
      3.1660E+000      4.8466E+005
      3.1740E+000      4.9090E+005
      3.1820E+000      4.9762E+005
      3.1900E+000      5.0482E+005
      3.1980E+000      5.1247E+005
      3.2060E+000      5.2054E+005
      3.2140E+000      5.2902E+005
      3.2220E+000      5.3791E+005
      3.2300E+000      5.4720E+005
      3.2380E+000      5.5691E+005
      3.2460E+000      5.6703E+005
      3.2539E+000      5.7750E+005
      3.2619E+000      5.8824E+005
      3.2699E+000      5.9906E+005
      3.2779E+000      6.0974E+005
      3.2859E+000      6.2005E+005
      3.2939E+000      6.2973E+005
      3.3019E+000      6.3860E+005
      3.3099E+000      6.4655E+005
      3.3179E+000      6.5357E+005
      3.3258E+000      6.5977E+005
      3.3338E+000      6.6537E+005
      3.3418E+000      6.7060E+005
      3.3498E+000      6.7574E+005
      3.3578E+000      6.8106E+005
      3.3658E+000      6.8678E+005
      3.3738E+000      6.9309E+005
      3.3818E+000      7.0013E+005
      3.3898E+000      7.0802E+005
      3.3978E+000      7.1681E+005
      3.4057E+000      7.2650E+005
      3.4137E+000      7.3702E+005
      3.4217E+000      7.4826E+005
      3.4297E+000      7.6000E+005
      3.4377E+000      7.7200E+005
      3.4457E+000      7.8402E+005
      3.4537E+000      7.9578E+005
      3.4617E+000      8.0708E+005
      3.4697E+000      8.1775E+005
      3.4777E+000      8.2768E+005
      3.4857E+000      8.3680E+005
      3.4936E+000      8.4510E+005
      3.5016E+000      8.5258E+005
      3.5096E+000      8.5928E+005
      3.5176E+000      8.6523E+005
      3.5256E+000      8.7048E+005
      3.5336E+000      8.7510E+005
      3.5416E+000      8.7913E+005
      3.5496E+000      8.8265E+005
      3.5576E+000      8.8571E+005
      3.5655E+000      8.8833E+005
      3.5735E+000      8.9053E+005
      3.5815E+000      8.9228E+005
      3.5895E+000      8.9349E+005
      3.5975E+000      8.9404E+005
      3.6055E+000      8.9378E+005
      3.6135E+000      8.9255E+005
      3.6215E+000      8.9020E+005
      3.6295E+000      8.8665E+005
      3.6375E+000      8.8189E+005
      3.6454E+000      8.7601E+005
      3.6534E+000      8.6921E+005
      3.6614E+000      8.6181E+005
      3.6694E+000      8.5417E+005
      3.6774E+000      8.4674E+005
      3.6854E+000      8.3993E+005
      3.6934E+000      8.3415E+005
      3.7014E+000      8.2974E+005
      3.7094E+000      8.2694E+005
      3.7174E+000      8.2591E+005
      3.7254E+000      8.2671E+005
      3.7333E+000      8.2930E+005
      3.7413E+000      8.3357E+005
      3.7493E+000      8.3937E+005
      3.7573E+000      8.4650E+005
      3.7653E+000      8.5475E+005
      3.7733E+000      8.6392E+005
      3.7813E+000      8.7383E+005
      3.7893E+000      8.8432E+005
      3.7973E+000      8.9525E+005
      3.8053E+000      9.0654E+005
      3.8132E+000      9.1808E+005
      3.8212E+000      9.2981E+005
      3.8292E+000      9.4161E+005
      3.8372E+000      9.5336E+005
      3.8452E+000      9.6489E+005
      3.8532E+000      9.7598E+005
      3.8612E+000      9.8634E+005
      3.8692E+000      9.9570E+005
      3.8772E+000      1.0038E+006
      3.8851E+000      1.0103E+006
      3.8931E+000      1.0152E+006
      3.9011E+000      1.0184E+006
      3.9091E+000      1.0200E+006
      3.9171E+000      1.0204E+006
      3.9251E+000      1.0199E+006
      3.9331E+000      1.0191E+006
      3.9411E+000      1.0183E+006
      3.9491E+000      1.0181E+006
      3.9571E+000      1.0186E+006
      3.9651E+000      1.0201E+006
      3.9730E+000      1.0227E+006
      3.9810E+000      1.0263E+006
      3.9890E+000      1.0307E+006
      3.9970E+000      1.0359E+006
      4.0050E+000      1.0415E+006
      4.0130E+000      1.0471E+006
      4.0210E+000      1.0524E+006
      4.0290E+000      1.0570E+006
      4.0370E+000      1.0604E+006
      4.0450E+000      1.0623E+006
      4.0529E+000      1.0625E+006
      4.0609E+000      1.0609E+006
      4.0689E+000      1.0576E+006
      4.0769E+000      1.0528E+006
      4.0849E+000      1.0469E+006
      4.0929E+000      1.0403E+006
      4.1009E+000      1.0334E+006
      4.1089E+000      1.0264E+006
      4.1169E+000      1.0198E+006
      4.1249E+000      1.0137E+006
      4.1328E+000      1.0083E+006
      4.1408E+000      1.0037E+006
      4.1488E+000      1.0000E+006
      4.1568E+000      9.9732E+005
      4.1648E+000      9.9569E+005
      4.1728E+000      9.9529E+005
      4.1808E+000      9.9627E+005
      4.1888E+000      9.9879E+005
      4.1968E+000      1.0030E+006
      4.2047E+000      1.0090E+006
      4.2127E+000      1.0168E+006
      4.2207E+000      1.0263E+006
      4.2287E+000      1.0374E+006
      4.2367E+000      1.0498E+006
      4.2447E+000      1.0631E+006
      4.2527E+000      1.0769E+006
      4.2607E+000      1.0908E+006
      4.2687E+000      1.1044E+006
      4.2767E+000      1.1170E+006
      4.2847E+000      1.1285E+006
      4.2926E+000      1.1384E+006
      4.3006E+000      1.1466E+006
      4.3086E+000      1.1529E+006
      4.3166E+000      1.1573E+006
      4.3246E+000      1.1600E+006
      4.3326E+000      1.1610E+006
      4.3406E+000      1.1606E+006
      4.3486E+000      1.1592E+006
      4.3566E+000      1.1568E+006
      4.3646E+000      1.1539E+006
      4.3725E+000      1.1509E+006
      4.3805E+000      1.1480E+006
      4.3885E+000      1.1456E+006
      4.3965E+000      1.1441E+006
      4.4045E+000      1.1437E+006
      4.4125E+000      1.1446E+006
      4.4205E+000      1.1471E+006
      4.4285E+000      1.1512E+006
      4.4365E+000      1.1569E+006
      4.4444E+000      1.1640E+006
      4.4524E+000      1.1723E+006
      4.4604E+000      1.1817E+006
      4.4684E+000      1.1917E+006
      4.4764E+000      1.2021E+006
      4.4844E+000      1.2125E+006
      4.4924E+000      1.2227E+006
      4.5004E+000      1.2325E+006
      4.5084E+000      1.2417E+006
      4.5164E+000      1.2503E+006
      4.5244E+000      1.2582E+006
      4.5323E+000      1.2655E+006
      4.5403E+000      1.2721E+006
      4.5483E+000      1.2784E+006
