# Phonon free energy and specific heat from phonopy-FHI-aims
# Phonon zero point energy =            0.050198751 eV 
#     Temperature (K)          Free energy (eV/cell)     Internal energy (eV/cell)                 c_v (kB/cell)              -TS_vib(eV/cell)
               0.000                    0.050198751                   0.050198751                   0.000000000                  -0.000000000
               0.999                    0.050198751                   0.050198751                   0.000003168                  -0.000000000
               1.998                    0.050198751                   0.050198755                   0.000109110                  -0.000000004
               2.996                    0.050198745                   0.050198775                   0.000394344                  -0.000000030
               3.995                    0.050198728                   0.050198831                   0.000947244                  -0.000000103
               4.994                    0.050198690                   0.050198949                   0.001871626                  -0.000000259
               5.993                    0.050198620                   0.050199167                   0.003273871                  -0.000000546
               6.991                    0.050198503                   0.050199530                   0.005272667                  -0.000001027
               7.990                    0.050198320                   0.050200095                   0.008006294                  -0.000001775
               8.989                    0.050198051                   0.050200934                   0.011642822                  -0.000002882
               9.988                    0.050197671                   0.050202131                   0.016389004                  -0.000004460
              10.986                    0.050197148                   0.050203794                   0.022492510                  -0.000006645
              11.985                    0.050196450                   0.050206050                   0.030235313                  -0.000009600
              12.984                    0.050195534                   0.050209054                   0.039919991                  -0.000013520
              13.983                    0.050194353                   0.050212986                   0.051852740                  -0.000018633
              14.981                    0.050192853                   0.050218052                   0.066326751                  -0.000025200
              15.980                    0.050190971                   0.050224483                   0.083608346                  -0.000033512
              16.979                    0.050188639                   0.050232531                   0.103926833                  -0.000043892
              17.978                    0.050185781                   0.050242465                   0.127468079                  -0.000056684
              18.976                    0.050182312                   0.050254569                   0.154371258                  -0.000072257
              19.975                    0.050178144                   0.050269136                   0.184728113                  -0.000090992
              20.974                    0.050173180                   0.050286467                   0.218584053                  -0.000113286
              21.973                    0.050167320                   0.050306862                   0.255940572                  -0.000139542
              22.971                    0.050160459                   0.050330621                   0.296758562                  -0.000170163
              23.970                    0.050152487                   0.050358041                   0.340962225                  -0.000205554
              24.969                    0.050143291                   0.050389406                   0.388443339                  -0.000246114
              25.968                    0.050132759                   0.050424994                   0.439065698                  -0.000292235
              26.966                    0.050120773                   0.050465069                   0.492669585                  -0.000344296
              27.965                    0.050107216                   0.050509878                   0.549076168                  -0.000402662
              28.964                    0.050091972                   0.050559657                   0.608091707                  -0.000467684
              29.963                    0.050074924                   0.050614619                   0.669511518                  -0.000539696
              30.961                    0.050055954                   0.050674964                   0.733123635                  -0.000619010
              31.960                    0.050034950                   0.050740870                   0.798712124                  -0.000705920
              32.959                    0.050011797                   0.050812498                   0.866060038                  -0.000800701
              33.958                    0.049986386                   0.050889990                   0.934952000                  -0.000903605
              34.956                    0.049958608                   0.050973471                   1.005176417                  -0.001014863
              35.955                    0.049928359                   0.051063045                   1.076527337                  -0.001134686
              36.954                    0.049895537                   0.051158802                   1.148805974                  -0.001263265
              37.953                    0.049860042                   0.051260812                   1.221821912                  -0.001400770
              38.951                    0.049821781                   0.051369132                   1.295394037                  -0.001547351
              39.950                    0.049780661                   0.051483801                   1.369351202                  -0.001703140
              40.949                    0.049736595                   0.051604847                   1.443532675                  -0.001868252
              41.948                    0.049689499                   0.051732281                   1.517788393                  -0.002042782
              42.946                    0.049639294                   0.051866104                   1.591979038                  -0.002226811
              43.945                    0.049585902                   0.052006305                   1.665975986                  -0.002420403
              44.944                    0.049529252                   0.052152863                   1.739661129                  -0.002623611
              45.943                    0.049469275                   0.052305744                   1.812926612                  -0.002836469
              46.941                    0.049405906                   0.052464910                   1.885674487                  -0.003059003
              47.940                    0.049339085                   0.052630311                   1.957816315                  -0.003291226
              48.939                    0.049268753                   0.052801892                   2.029272724                  -0.003533139
              49.938                    0.049194858                   0.052979591                   2.099972942                  -0.003784733
              50.936                    0.049117348                   0.053163340                   2.169854305                  -0.004045992
              51.935                    0.049036176                   0.053353067                   2.238861763                  -0.004316890
              52.934                    0.048951300                   0.053548693                   2.306947384                  -0.004597393
              53.933                    0.048862677                   0.053750137                   2.374069859                  -0.004887461
              54.931                    0.048770270                   0.053957316                   2.440194022                  -0.005187046
              55.930                    0.048674046                   0.054170142                   2.505290383                  -0.005496097
              56.929                    0.048573971                   0.054388526                   2.569334678                  -0.005814555
              57.928                    0.048470017                   0.054612375                   2.632307437                  -0.006142358
              58.926                    0.048362157                   0.054841598                   2.694193576                  -0.006479441
              59.925                    0.048250367                   0.055076100                   2.754982007                  -0.006825732
              60.924                    0.048134626                   0.055315786                   2.814665275                  -0.007181160
              61.923                    0.048014913                   0.055560561                   2.873239213                  -0.007545647
              62.921                    0.047891213                   0.055810329                   2.930702620                  -0.007919117
              63.920                    0.047763508                   0.056064995                   2.987056965                  -0.008301487
              64.919                    0.047631787                   0.056324464                   3.042306108                  -0.008692677
              65.918                    0.047496038                   0.056588641                   3.096456038                  -0.009092603
              66.916                    0.047356251                   0.056857431                   3.149514644                  -0.009501180
              67.915                    0.047212418                   0.057130741                   3.201491487                  -0.009918323
              68.914                    0.047064533                   0.057408478                   3.252397602                  -0.010343945
              69.913                    0.046912592                   0.057690551                   3.302245314                  -0.010777959
              70.911                    0.046756591                   0.057976869                   3.351048065                  -0.011220278
              71.910                    0.046596528                   0.058267343                   3.398820265                  -0.011670815
              72.909                    0.046432401                   0.058561884                   3.445577145                  -0.012129483
              73.908                    0.046264213                   0.058860407                   3.491334630                  -0.012596193
              74.906                    0.046091965                   0.059162825                   3.536109225                  -0.013070860
              75.905                    0.045915658                   0.059469055                   3.579917910                  -0.013553397
              76.904                    0.045735298                   0.059779015                   3.622778040                  -0.014043717
              77.903                    0.045550888                   0.060092623                   3.664707262                  -0.014541735
              78.901                    0.045362435                   0.060409801                   3.705723440                  -0.015047366
              79.900                    0.045169944                   0.060730469                   3.745844579                  -0.015560525
              80.899                    0.044973424                   0.061054554                   3.785088771                  -0.016081129
              81.898                    0.044772882                   0.061381978                   3.823474133                  -0.016609096
              82.896                    0.044568327                   0.061712670                   3.861018760                  -0.017144343
              83.895                    0.044359769                   0.062046558                   3.897740683                  -0.017686789
              84.894                    0.044147217                   0.062383571                   3.933657827                  -0.018236355
              85.893                    0.043930682                   0.062723642                   3.968787978                  -0.018792961
              86.891                    0.043710175                   0.063066703                   4.003148755                  -0.019356528
              87.890                    0.043485708                   0.063412689                   4.036757582                  -0.019926981
              88.889                    0.043257293                   0.063761536                   4.069631667                  -0.020504243
              89.888                    0.043024943                   0.064113181                   4.101787980                  -0.021088238
              90.886                    0.042788670                   0.064467563                   4.133243240                  -0.021678893
              91.885                    0.042548488                   0.064824623                   4.164013897                  -0.022276135
              92.884                    0.042304411                   0.065184302                   4.194116124                  -0.022879891
              93.883                    0.042056452                   0.065546544                   4.223565806                  -0.023490092
              94.881                    0.041804626                   0.065911293                   4.252378532                  -0.024106667
              95.880                    0.041548948                   0.066278495                   4.280569589                  -0.024729547
              96.879                    0.041289432                   0.066648097                   4.308153959                  -0.025358664
              97.878                    0.041026094                   0.067020047                   4.335146313                  -0.025993953
              98.876                    0.040758949                   0.067394296                   4.361561012                  -0.026635347
              99.875                    0.040488012                   0.067770794                   4.387412105                  -0.027282782
             100.874                    0.040213298                   0.068149492                   4.412713327                  -0.027936194
             101.873                    0.039934825                   0.068530346                   4.437478106                  -0.028595521
             102.871                    0.039652607                   0.068913308                   4.461719557                  -0.029260700
             103.870                    0.039366661                   0.069298334                   4.485450489                  -0.029931673
             104.869                    0.039077004                   0.069685381                   4.508683406                  -0.030608378
             105.868                    0.038783650                   0.070074407                   4.531430514                  -0.031290757
             106.866                    0.038486617                   0.070465370                   4.553703719                  -0.031978752
             107.865                    0.038185922                   0.070858230                   4.575514636                  -0.032672308
             108.864                    0.037881580                   0.071252948                   4.596874591                  -0.033371367
             109.863                    0.037573609                   0.071649485                   4.617794625                  -0.034075876
             110.861                    0.037262024                   0.072047804                   4.638285504                  -0.034785779
             111.860                    0.036946844                   0.072447868                   4.658357716                  -0.035501025
             112.859                    0.036628083                   0.072849643                   4.678021484                  -0.036221559
             113.858                    0.036305760                   0.073253092                   4.697286767                  -0.036947332
             114.856                    0.035979890                   0.073658183                   4.716163267                  -0.037678293
             115.855                    0.035650490                   0.074064882                   4.734660434                  -0.038414391
             116.854                    0.035317578                   0.074473157                   4.752787472                  -0.039155579
             117.853                    0.034981170                   0.074882976                   4.770553343                  -0.039901807
             118.851                    0.034641282                   0.075294310                   4.787966776                  -0.040653028
             119.850                    0.034297931                   0.075707127                   4.805036270                  -0.041409196
             120.849                    0.033951134                   0.076121399                   4.821770098                  -0.042170264
             121.848                    0.033600908                   0.076537097                   4.838176316                  -0.042936189
             122.846                    0.033247268                   0.076954193                   4.854262768                  -0.043706925
             123.845                    0.032890231                   0.077372660                   4.870037089                  -0.044482428
             124.844                    0.032529815                   0.077792471                   4.885506712                  -0.045262656
             125.843                    0.032166034                   0.078213601                   4.900678872                  -0.046047567
             126.841                    0.031798906                   0.078636025                   4.915560612                  -0.046837118
             127.840                    0.031428447                   0.079059716                   4.930158791                  -0.047631269
             128.839                    0.031054673                   0.079484653                   4.944480081                  -0.048429979
             129.838                    0.030677600                   0.079910810                   4.958530981                  -0.049233210
             130.836                    0.030297245                   0.080338165                   4.972317817                  -0.050040920
             131.835                    0.029913622                   0.080766696                   4.985846744                  -0.050853073
             132.834                    0.029526749                   0.081196380                   4.999123758                  -0.051669631
             133.833                    0.029136641                   0.081627196                   5.012154693                  -0.052490555
             134.831                    0.028743313                   0.082059123                   5.024945232                  -0.053315810
             135.830                    0.028346782                   0.082492141                   5.037500906                  -0.054145359
             136.829                    0.027947063                   0.082926229                   5.049827099                  -0.054979167
             137.828                    0.027544171                   0.083361369                   5.061929056                  -0.055817198
